Smoothed ATR airfoil coordinates obtained  using
    1.000000       0.000000    
   0.9953502      0.7130462E-03
   0.9896505      0.1600074E-02
   0.9835593      0.2563854E-02
   0.9770548      0.3611057E-02
   0.9701334      0.4745924E-02
   0.9628202      0.5968145E-02
   0.9551716      0.7273111E-02
   0.9472533      0.8655003E-02
   0.9391177      0.1010989E-01
   0.9307895      0.1163637E-01
   0.9222813      0.1323021E-01
   0.9136106      0.1488488E-01
   0.9048008      0.1659209E-01
   0.8958771      0.1834310E-01
   0.8868636      0.2012902E-01
   0.8777810      0.2194105E-01
   0.8686469      0.2376956E-01
   0.8594793      0.2560423E-01
   0.8502962      0.2743510E-01
   0.8411142      0.2925519E-01
   0.8319461      0.3105910E-01
   0.8227998      0.3284233E-01
   0.8136778      0.3460049E-01
   0.8045748      0.3633018E-01
   0.7954791      0.3803035E-01
   0.7863788      0.3970370E-01
   0.7772664      0.4135283E-01
   0.7681390      0.4297943E-01
   0.7589958      0.4458480E-01
   0.7498351      0.4617040E-01
   0.7406542      0.4773805E-01
   0.7314517      0.4928996E-01
   0.7222295      0.5082788E-01
   0.7129927      0.5235276E-01
   0.7037470      0.5386436E-01
   0.6944979      0.5536232E-01
   0.6852506      0.5684603E-01
   0.6760105      0.5831372E-01
   0.6667856      0.5976318E-01
   0.6575834      0.6119045E-01
   0.6484014      0.6259042E-01
   0.6392245      0.6396127E-01
   0.6300363      0.6530665E-01
   0.6208262      0.6663029E-01
   0.6115897      0.6793513E-01
   0.6023256      0.6922410E-01
   0.5930336      0.7050005E-01
   0.5837151      0.7176582E-01
   0.5743738      0.7302407E-01
   0.5650173      0.7427698E-01
   0.5556601      0.7552529E-01
   0.5463255      0.7676678E-01
   0.5370322      0.7799362E-01
   0.5277833      0.7919910E-01
   0.5185763      0.8037996E-01
   0.5094156      0.8153284E-01
   0.5003077      0.8265197E-01
   0.4912496      0.8373184E-01
   0.4822280      0.8476863E-01
   0.4732248      0.8576240E-01
   0.4642245      0.8671503E-01
   0.4552152      0.8762779E-01
   0.4461888      0.8850228E-01
   0.4371383      0.8934128E-01
   0.4280561      0.9014764E-01
   0.4189356      0.9092489E-01
   0.4097747      0.9167740E-01
   0.4005779      0.9240918E-01
   0.3913549      0.9312232E-01
   0.3821154      0.9381735E-01
   0.3728669      0.9449476E-01
   0.3636167      0.9515395E-01
   0.3543732      0.9579390E-01
   0.3451463      0.9641353E-01
   0.3359474      0.9701177E-01
   0.3267889      0.9758642E-01
   0.3176826      0.9813309E-01
   0.3086394      0.9864738E-01
   0.2996689      0.9912530E-01
   0.2907794      0.9956319E-01
   0.2819782      0.9995631E-01
   0.2732726      0.1002989    
   0.2646698      0.1005856    
   0.2561767      0.1008119    
   0.2478001      0.1009734    
   0.2395460      0.1010646    
   0.2314186      0.1010794    
   0.2234198      0.1010130    
   0.2155498      0.1008608    
   0.2078071      0.1006192    
   0.2001901      0.1002844    
   0.1926972      0.9985270E-01
   0.1853269      0.9932124E-01
   0.1780787      0.9868745E-01
   0.1709516      0.9794916E-01
   0.1639442      0.9710449E-01
   0.1570545      0.9615181E-01
   0.1502805      0.9508999E-01
   0.1436219      0.9391902E-01
   0.1370803      0.9263959E-01
   0.1306583      0.9125284E-01
   0.1243593      0.8976070E-01
   0.1181877      0.8816600E-01
   0.1121472      0.8647206E-01
   0.1062412      0.8468249E-01
   0.1004733      0.8280137E-01
   0.9485088E-01  0.8083472E-01
   0.8938540E-01  0.7879084E-01
   0.8409040E-01  0.7668014E-01
   0.7897979E-01  0.7451461E-01
   0.7406484E-01  0.7230566E-01
   0.6935035E-01  0.7006229E-01
   0.6483516E-01  0.6779154E-01
   0.6051400E-01  0.6549880E-01
   0.5638030E-01  0.6318826E-01
   0.5243321E-01  0.6086602E-01
   0.4867698E-01  0.5854158E-01
   0.4511742E-01  0.5622673E-01
   0.4175918E-01  0.5393394E-01
   0.3860401E-01  0.5167506E-01
   0.3565023E-01  0.4946033E-01
   0.3289257E-01  0.4729782E-01
   0.3032217E-01  0.4519232E-01
   0.2792549E-01  0.4314373E-01
   0.2568669E-01  0.4114891E-01
   0.2359033E-01  0.3920329E-01
   0.2162552E-01  0.3730347E-01
   0.1978432E-01  0.3544787E-01
   0.1806032E-01  0.3363618E-01
   0.1644773E-01  0.3186864E-01
   0.1494099E-01  0.3014556E-01
   0.1353467E-01  0.2846732E-01
   0.1222323E-01  0.2683394E-01
   0.1100126E-01  0.2524533E-01
   0.9863166E-02  0.2370082E-01
   0.8803727E-02  0.2219977E-01
   0.7818808E-02  0.2074064E-01
   0.6904992E-02  0.1932055E-01
   0.6058669E-02  0.1793649E-01
   0.5276023E-02  0.1658525E-01
   0.4553382E-02  0.1526379E-01
   0.3887364E-02  0.1396909E-01
   0.3276391E-02  0.1269920E-01
   0.2719590E-02  0.1145300E-01
   0.2216066E-02  0.1022988E-01
   0.1764977E-02  0.9030021E-02
   0.1365131E-02  0.7853408E-02
   0.1015232E-02  0.6700423E-02
   0.7140730E-03  0.5571608E-02
   0.4630007E-03  0.4467408E-02
   0.2642133E-03  0.3387133E-02
   0.1192246E-03  0.2328165E-02
   0.2953145E-04  0.1287058E-02
   0.00000000000  0.0000000000
  -0.2991692E-05  0.2594902E-03
   0.2405075E-04 -0.7594706E-03
   0.1104559E-03 -0.1774239E-02
   0.2546528E-03 -0.2787599E-02
   0.4561918E-03 -0.3801753E-02
   0.7156501E-03 -0.4818423E-02
   0.1034532E-02 -0.5838817E-02
   0.1415081E-02 -0.6863243E-02
   0.1860490E-02 -0.7891743E-02
   0.2374498E-02 -0.8922966E-02
   0.2961647E-02 -0.9954743E-02
   0.3626748E-02 -0.1098296E-01
   0.4374644E-02 -0.1200139E-01
   0.5209248E-02 -0.1300182E-01
   0.6132219E-02 -0.1398032E-01
   0.7143836E-02 -0.1493554E-01
   0.8243513E-02 -0.1586684E-01
   0.9429672E-02 -0.1677431E-01
   0.1070007E-01 -0.1765919E-01
   0.1205230E-01 -0.1852425E-01
   0.1348345E-01 -0.1937369E-01
   0.1499462E-01 -0.2021312E-01
   0.1659437E-01 -0.2104716E-01
   0.1829150E-01 -0.2187919E-01
   0.2009498E-01 -0.2270919E-01
   0.2201452E-01 -0.2353605E-01
   0.2406050E-01 -0.2435841E-01
   0.2624447E-01 -0.2517488E-01
   0.2857867E-01 -0.2598386E-01
   0.3107605E-01 -0.2678367E-01
   0.3374968E-01 -0.2757254E-01
   0.3661323E-01 -0.2834908E-01
   0.3967959E-01 -0.2911223E-01
   0.4296101E-01 -0.2986186E-01
   0.4646836E-01 -0.3059937E-01
   0.5021177E-01 -0.3132859E-01
   0.5420184E-01 -0.3205615E-01
   0.5845667E-01 -0.3278381E-01
   0.6299754E-01 -0.3350854E-01
   0.6784487E-01 -0.3422669E-01
   0.7301552E-01 -0.3493397E-01
   0.7852212E-01 -0.3562587E-01
   0.8437230E-01 -0.3629815E-01
   0.9056894E-01 -0.3694750E-01
   0.9711406E-01 -0.3757210E-01
   0.1040049     -0.3816919E-01
   0.1112297     -0.3873598E-01
   0.1187674     -0.3927096E-01
   0.1265900     -0.3977453E-01
   0.1346667     -0.4024916E-01
   0.1429693     -0.4069622E-01
   0.1514706     -0.4111571E-01
   0.1601436     -0.4150864E-01
   0.1689635     -0.4187654E-01
   0.1779070     -0.4222094E-01
   0.1869538     -0.4254396E-01
   0.1960869     -0.4284783E-01
   0.2052900     -0.4313471E-01
   0.2145456     -0.4340699E-01
   0.2238364     -0.4366669E-01
   0.2331457     -0.4391329E-01
   0.2424606     -0.4414564E-01
   0.2517715     -0.4436271E-01
   0.2610714     -0.4456288E-01
   0.2703557     -0.4474411E-01
   0.2796209     -0.4490441E-01
   0.2888644     -0.4504171E-01
   0.2980841     -0.4515400E-01
   0.3072791     -0.4523898E-01
   0.3164518     -0.4529429E-01
   0.3256078     -0.4531762E-01
   0.3347552     -0.4530777E-01
   0.3439025     -0.4526461E-01
   0.3530571     -0.4518808E-01
   0.3622263     -0.4507935E-01
   0.3714158     -0.4494015E-01
   0.3806302     -0.4477218E-01
   0.3898727     -0.4457758E-01
   0.3991446     -0.4435891E-01
   0.4084450     -0.4411883E-01
   0.4177705     -0.4385969E-01
   0.4271176     -0.4358324E-01
   0.4364828     -0.4329121E-01
   0.4458622     -0.4298513E-01
   0.4552503     -0.4266603E-01
   0.4646384     -0.4233497E-01
   0.4740172     -0.4199144E-01
   0.4833818     -0.4163311E-01
   0.4927343     -0.4125746E-01
   0.5020802     -0.4086337E-01
   0.5114241     -0.4045088E-01
   0.5207676     -0.4002031E-01
   0.5301105     -0.3957255E-01
   0.5394508     -0.3910865E-01
   0.5487848     -0.3862898E-01
   0.5581072     -0.3813357E-01
   0.5674129     -0.3762063E-01
   0.5767007     -0.3708706E-01
   0.5859752     -0.3653032E-01
   0.5952450     -0.3594854E-01
   0.6045229     -0.3534013E-01
   0.6138213     -0.3470660E-01
   0.6231453     -0.3405099E-01
   0.6324919     -0.3337653E-01
   0.6418563     -0.3268456E-01
   0.6512408     -0.3197534E-01
   0.6606538     -0.3124942E-01
   0.6701025     -0.3050997E-01
   0.6795849     -0.2976124E-01
   0.6890904     -0.2900816E-01
   0.6986033     -0.2825461E-01
   0.7081127     -0.2750332E-01
   0.7176142     -0.2675644E-01
   0.7271082     -0.2601369E-01
   0.7365932     -0.2527218E-01
   0.7460635     -0.2452916E-01
   0.7555095     -0.2378231E-01
   0.7649224     -0.2302949E-01
   0.7742957     -0.2226843E-01
   0.7836257     -0.2149578E-01
   0.7929128     -0.2070721E-01
   0.8021623     -0.1989822E-01
   0.8113822     -0.1906588E-01
   0.8205814     -0.1820831E-01
   0.8297688     -0.1732359E-01
   0.8389524     -0.1641111E-01
   0.8481373     -0.1547218E-01
   0.8573251     -0.1450858E-01
   0.8665128     -0.1352263E-01
   0.8756957     -0.1251708E-01
   0.8848675     -0.1149488E-01
   0.8940196     -0.1045999E-01
   0.9031347     -0.9420261E-02
   0.9121802     -0.8385971E-02
   0.9211099     -0.7368735E-02
   0.9298713     -0.6380702E-02
   0.9384191     -0.5432674E-02
   0.9467179     -0.4533143E-02
   0.9547408     -0.3690142E-02
   0.9624556     -0.2915695E-02
   0.9698218     -0.2220360E-02
   0.9768031     -0.1610569E-02
   0.9833761     -0.1087756E-02
   0.9895371     -0.6454582E-03
   0.9953008     -0.2734544E-03
    1.000000       0.000000    